"Time (s)","X (hPa)"
-5.600219167E-1,1.016035080E3
4.443650833E-1,1.016035156E3
1.448800083E0,1.016035233E3
2.453221083E0,1.016044235E3
3.457612083E0,1.016050568E3
3.810316083E0,1.016056366E3
4.881617083E0,1.016056900E3
5.952930083E0,1.016056747E3
7.024242083E0,1.016056747E3
8.095535083E0,1.016048660E3
9.166828083E0,1.016039124E3
1.023814008E1,1.016028137E3
1.130943308E1,1.016015701E3
1.238074508E1,1.016010666E3
1.345205308E1,1.016010284E3
1.452339508E1,1.016009903E3
1.559473708E1,1.016009903E3
1.666605608E1,1.016011581E3
1.773736308E1,1.016013641E3
1.880870908E1,1.016013641E3
1.988002108E1,1.015998764E3
2.095133508E1,1.015973053E3
2.202263808E1,1.015946960E3
2.309394708E1,1.015920334E3
2.416527308E1,1.015893173E3
2.523656708E1,1.015885391E3
2.630785508E1,1.015885391E3
2.737916308E1,1.015892410E3
2.845049908E1,1.015901031E3
2.952183108E1,1.015909882E3
3.059319808E1,1.015917816E3
3.166453408E1,1.015919952E3
3.273588808E1,1.015919952E3
3.380724108E1,1.015916290E3
3.487859408E1,1.015911331E3
3.594991308E1,1.015904770E3
3.702125208E1,1.015897827E3
3.809260108E1,1.015889053E3
3.916388908E1,1.015879593E3
4.023524208E1,1.015879288E3
4.130664708E1,1.015879288E3
4.237801408E1,1.015886688E3
4.344932508E1,1.015902863E3
4.452061408E1,1.015923920E3
4.559191308E1,1.015943909E3
4.666327708E1,1.015970230E3
4.773462108E1,1.015992126E3
4.880595808E1,1.016008453E3
4.987728308E1,1.016022720E3
5.094863908E1,1.016032410E3
5.201999908E1,1.016036987E3
5.309134708E1,1.016043396E3
5.416271308E1,1.016054688E3
5.523409308E1,1.016066437E3
5.630548708E1,1.016079941E3
5.737684008E1,1.016091156E3
5.844823508E1,1.016101456E3
5.951964008E1,1.016111298E3
6.059105408E1,1.016118546E3
6.166244308E1,1.016123734E3
6.273381208E1,1.016130219E3
6.380524108E1,1.016139069E3
6.487669408E1,1.016144257E3
6.594812708E1,1.016145859E3
6.701952008E1,1.016149597E3
6.809091608E1,1.016152420E3
6.916230508E1,1.016159363E3
7.023372008E1,1.016164856E3
7.130512208E1,1.016169281E3
7.237649808E1,1.016172180E3
7.344789508E1,1.016172180E3
7.451925908E1,1.016170197E3
7.559062608E1,1.016167297E3
7.666199108E1,1.016167297E3
7.773336308E1,1.016172333E3
7.880474108E1,1.016174850E3
7.987609108E1,1.016178131E3
8.094745008E1,1.016181183E3
8.201879208E1,1.016181183E3
8.309014908E1,1.016168442E3
8.416150608E1,1.016151123E3
8.523284408E1,1.016134338E3
8.630414808E1,1.016114731E3
8.737546608E1,1.016097717E3
8.844680808E1,1.016090088E3
8.951812308E1,1.016088943E3
9.058945508E1,1.016081390E3
9.166072008E1,1.016070862E3
9.273202708E1,1.016068573E3
9.380339108E1,1.016066742E3
9.487472608E1,1.016066742E3
9.594606108E1,1.016074982E3
9.701742408E1,1.016087112E3
9.808879308E1,1.016093903E3
9.916018408E1,1.016099701E3
1.002315421E2,1.016101837E3
1.013029141E2,1.016102066E3
1.023742711E2,1.016102066E3
1.034456331E2,1.016106339E3
1.045169491E2,1.016108627E3
1.055882841E2,1.016109848E3
1.066596721E2,1.016110306E3
1.077310711E2,1.016110306E3
1.088024551E2,1.016105652E3
1.098738331E2,1.016101456E3
1.109452321E2,1.016099319E3
1.120165921E2,1.016098557E3
1.130879451E2,1.016098557E3
1.141593011E2,1.016107712E3
1.152306181E2,1.016112976E3
1.163019091E2,1.016115189E3
1.173732331E2,1.016115189E3
1.184445701E2,1.016113815E3
1.195159111E2,1.016102066E3
1.205872671E2,1.016087189E3
1.216585701E2,1.016076965E3
1.227298801E2,1.016070480E3
1.238012511E2,1.016067352E3
1.248726261E2,1.016067123E3
1.259439841E2,1.016067352E3
1.270153251E2,1.016069183E3
1.280866351E2,1.016069183E3
1.291579771E2,1.016069031E3
1.302293111E2,1.016069031E3
1.313006461E2,1.016072540E3
1.323719851E2,1.016073074E3
1.334432941E2,1.016073074E3
1.345146111E2,1.016067352E3
1.355858911E2,1.016061859E3
1.366571631E2,1.016057053E3
1.377284441E2,1.016050949E3
1.387997141E2,1.016048813E3
1.398710201E2,1.016048813E3
1.409422931E2,1.016049042E3
1.420135721E2,1.016049042E3
1.430848671E2,1.016047974E3
1.441561751E2,1.016047821E3
1.452274001E2,1.016046600E3
1.462987151E2,1.016038666E3
1.473700101E2,1.016038132E3
1.484413451E2,1.016036224E3
1.495126441E2,1.016036224E3
1.505839601E2,1.016041641E3
1.516552271E2,1.016051102E3
1.527265461E2,1.016051712E3
1.537978501E2,1.016051712E3
1.548691361E2,1.016048965E3
1.559404411E2,1.016048584E3
1.570117161E2,1.016043777E3
1.580830501E2,1.016038895E3
1.591543911E2,1.016038895E3
1.602257011E2,1.016042099E3
1.612969981E2,1.016047592E3
1.623683061E2,1.016056442E3
1.634396081E2,1.016080170E3
1.645108861E2,1.016108780E3
1.655822241E2,1.016137238E3
1.666535101E2,1.016161423E3
1.677247951E2,1.016192169E3
1.687960381E2,1.016218109E3
1.698673531E2,1.016244812E3
1.709386571E2,1.016274109E3
1.720100111E2,1.016306305E3
1.730813111E2,1.016336212E3
1.741526301E2,1.016359940E3
1.752239911E2,1.016377258E3
1.762953241E2,1.016393585E3
1.773667041E2,1.016407776E3
1.784380711E2,1.016421432E3
1.795094331E2,1.016436310E3
1.805807441E2,1.016456757E3
1.816520131E2,1.016472626E3
1.827232881E2,1.016487350E3
1.837945331E2,1.016498108E3
1.848657691E2,1.016518631E3
1.859370551E2,1.016546097E3
1.870083761E2,1.016578674E3
1.880796991E2,1.016631927E3
1.891510641E2,1.016712112E3
1.902224361E2,1.016798630E3
1.912937881E2,1.016895752E3
1.923651451E2,1.017008362E3
1.934364381E2,1.017120514E3
1.945077041E2,1.017219696E3
1.955790221E2,1.017315063E3
1.966504231E2,1.017395935E3
1.977217701E2,1.017460327E3
1.987931171E2,1.017502670E3
1.998644771E2,1.017528687E3
2.009358171E2,1.017540054E3
2.020071231E2,1.017540054E3
2.030784601E2,1.017530823E3
2.041497951E2,1.017502594E3
2.052211231E2,1.017459106E3
2.062924411E2,1.017392578E3
2.073637331E2,1.017302475E3
2.084350631E2,1.017196274E3
2.095064241E2,1.017084503E3
2.105777641E2,1.016968613E3
2.116491271E2,1.016866302E3
2.127204491E2,1.016781006E3
2.137917731E2,1.016711349E3
2.148630901E2,1.016655884E3
2.159344741E2,1.016611710E3
2.170058291E2,1.016576004E3
2.180771951E2,1.016543961E3
2.191485901E2,1.016518097E3
2.202199651E2,1.016510468E3
2.212913141E2,1.016510468E3
2.223627201E2,1.016531296E3
2.234340771E2,1.016564178E3
2.245054581E2,1.016597443E3
2.255768461E2,1.016623535E3
2.266482371E2,1.016645050E3
2.277195861E2,1.016652603E3
2.287909471E2,1.016655960E3
2.298623321E2,1.016658707E3
2.309337141E2,1.016659164E3
2.320050841E2,1.016662064E3
2.330764381E2,1.016674652E3
2.341477371E2,1.016687927E3
2.352190591E2,1.016699142E3
2.362904141E2,1.016717453E3
2.373617571E2,1.016729202E3
2.384330781E2,1.016741638E3
2.395044191E2,1.016745682E3
2.405757661E2,1.016747131E3
2.416471161E2,1.016747131E3
2.427184491E2,1.016747131E3
2.437898401E2,1.016742935E3
2.448611961E2,1.016728745E3
2.459325631E2,1.016715088E3
2.470039521E2,1.016699371E3
2.480753271E2,1.016686478E3
2.491467091E2,1.016678467E3
2.502180631E2,1.016678467E3
2.512893971E2,1.016679993E3
2.523607141E2,1.016683273E3
2.534320501E2,1.016684341E3
2.545033891E2,1.016684723E3
2.555746821E2,1.016689987E3
2.566460381E2,1.016689987E3
2.577174021E2,1.016687698E3
2.587887401E2,1.016686020E3
2.598600601E2,1.016675034E3
2.609313891E2,1.016662216E3
2.620026771E2,1.016651077E3
2.630739551E2,1.016644592E3
2.641452501E2,1.016637878E3
2.652165191E2,1.016636734E3
2.662877901E2,1.016635971E3
2.673590471E2,1.016635132E3
2.684303001E2,1.016630249E3
2.695015741E2,1.016622314E3
2.705728601E2,1.016613846E3
2.716441561E2,1.016610489E3
2.727154481E2,1.016606522E3
2.737866961E2,1.016601791E3
2.748579681E2,1.016596603E3
2.759292041E2,1.016592178E3
2.770004771E2,1.016582260E3
2.780717661E2,1.016570587E3
2.791430611E2,1.016565475E3
2.802143791E2,1.016565475E3
2.812856881E2,1.016568527E3
2.823569771E2,1.016578522E3
2.834282391E2,1.016590500E3
2.844994911E2,1.016598663E3
2.855707921E2,1.016601181E3
2.866420471E2,1.016601181E3
2.877133541E2,1.016600189E3
2.887846731E2,1.016600189E3
2.898560121E2,1.016600800E3
2.909273561E2,1.016603088E3
2.919986271E2,1.016609650E3
2.930699061E2,1.016612549E3
2.941411651E2,1.016612549E3
2.952124551E2,1.016607361E3
2.962837221E2,1.016599121E3
2.973550191E2,1.016595154E3
2.984263621E2,1.016590500E3
2.994976711E2,1.016590500E3
3.005689601E2,1.016594696E3
3.016402691E2,1.016608963E3
3.027115491E2,1.016618195E3
3.037828381E2,1.016618195E3
3.048541571E2,1.016615982E3
3.059255011E2,1.016614685E3
3.069968171E2,1.016612320E3
3.080681471E2,1.016611481E3
3.091394491E2,1.016611481E3
3.102107421E2,1.016624527E3
3.112820721E2,1.016635361E3
3.123534241E2,1.016641464E3
3.134247951E2,1.016648102E3
3.144961921E2,1.016651459E3
3.155675301E2,1.016656952E3
3.166389521E2,1.016656952E3
3.177103691E2,1.016647797E3
3.187817861E2,1.016636124E3
3.198531971E2,1.016627960E3
3.209246061E2,1.016623764E3
3.219959881E2,1.016623764E3
3.230673641E2,1.016629791E3
3.241387681E2,1.016640778E3
3.252101531E2,1.016649170E3
3.262814901E2,1.016649170E3
3.273527911E2,1.016646194E3
3.284240961E2,1.016637421E3
3.294954431E2,1.016630859E3
3.305667431E2,1.016624832E3
3.316380291E2,1.016620636E3
3.327093441E2,1.016620636E3
3.337806021E2,1.016623764E3
3.348518501E2,1.016625366E3
3.359231441E2,1.016626205E3
3.369944591E2,1.016626205E3
3.380657561E2,1.016619949E3
3.391370841E2,1.016614227E3
3.402083991E2,1.016604538E3
3.412797081E2,1.016594925E3
3.423510221E2,1.016584091E3
3.434223601E2,1.016576385E3
3.444936871E2,1.016575928E3
3.455649971E2,1.016570892E3
3.466363041E2,1.016567764E3
3.477075721E2,1.016567764E3
3.487788391E2,1.016576309E3
3.498501361E2,1.016581802E3
3.509214441E2,1.016597061E3
3.519927851E2,1.016613159E3
3.530640951E2,1.016620331E3
3.541354261E2,1.016620331E3
3.552067521E2,1.016614456E3
3.562781141E2,1.016604767E3
3.573494991E2,1.016602097E3
3.584209171E2,1.016596603E3
3.594923121E2,1.016593170E3
3.605636351E2,1.016593170E3
3.616349401E2,1.016597214E3
3.627062361E2,1.016597366E3
3.637775281E2,1.016601181E3
3.648488001E2,1.016602020E3
3.659201271E2,1.016605453E3
3.669914061E2,1.016607056E3
3.680627531E2,1.016605453E3
3.691341021E2,1.016602478E3
3.702054371E2,1.016602478E3
3.712767851E2,1.016603088E3
3.723481371E2,1.016603088E3
3.734194671E2,1.016604843E3
3.744908071E2,1.016606293E3
3.755621851E2,1.016611481E3
3.766335511E2,1.016613998E3
3.777049131E2,1.016619339E3
3.787762461E2,1.016629562E3
3.798475431E2,1.016640778E3
3.809188551E2,1.016649780E3
3.819901491E2,1.016660843E3
3.830614141E2,1.016671371E3
3.841326801E2,1.016690674E3
3.852040311E2,1.016712570E3
3.862753311E2,1.016728973E3
3.873466491E2,1.016756516E3
3.884179931E2,1.016781769E3
3.894893281E2,1.016794434E3
3.905606831E2,1.016805649E3
3.916320411E2,1.016824951E3
3.927033911E2,1.016831512E3
3.937747361E2,1.016834717E3
3.948461531E2,1.016846695E3
3.959175161E2,1.016848602E3
3.969888581E2,1.016848602E3
3.980601891E2,1.016841812E3
3.991315591E2,1.016833038E3
4.002029361E2,1.016820831E3
4.012742671E2,1.016809158E3
4.023455881E2,1.016798248E3
4.034169361E2,1.016792755E3
4.044882711E2,1.016787720E3
4.055596111E2,1.016774521E3
4.066309621E2,1.016759720E3
4.077023021E2,1.016750946E3
4.087736571E2,1.016745605E3
4.098449861E2,1.016743698E3
4.109162731E2,1.016741180E3
4.119876231E2,1.016736832E3
4.130589441E2,1.016728210E3
4.141302821E2,1.016714020E3
4.152016241E2,1.016698456E3
4.162729481E2,1.016685638E3
4.173442961E2,1.016664963E3
4.184156361E2,1.016642532E3
4.194869711E2,1.016624374E3
4.205582941E2,1.016604538E3
4.216296301E2,1.016579971E3
4.227009451E2,1.016565247E3
4.237722621E2,1.016552200E3
4.248435891E2,1.016533585E3
4.259149431E2,1.016506500E3
4.269862321E2,1.016474228E3
4.280575381E2,1.016439514E3
4.291288571E2,1.016395950E3
4.302001801E2,1.016351776E3
4.312715111E2,1.016308594E3
4.323428561E2,1.016267853E3
4.334142071E2,1.016225052E3
4.344855521E2,1.016185837E3
4.355568681E2,1.016148529E3
4.366282091E2,1.016125259E3
4.376995801E2,1.016114044E3
4.387710071E2,1.016114044E3
4.398424871E2,1.016121368E3
4.409139231E2,1.016145630E3
4.419852951E2,1.016178055E3
4.430566721E2,1.016223907E3
4.441280571E2,1.016285019E3
4.451994701E2,1.016361008E3
4.462708321E2,1.016436157E3
4.473421771E2,1.016509857E3
4.484135351E2,1.016572189E3
4.494849051E2,1.016619949E3
4.505562741E2,1.016648941E3
4.516277021E2,1.016670227E3
4.526991301E2,1.016681824E3
4.537705331E2,1.016681824E3
4.548419411E2,1.016676941E3
4.559133361E2,1.016671066E3
4.569848091E2,1.016650467E3
4.580562391E2,1.016611328E3
4.591276351E2,1.016581039E3
4.601990481E2,1.016554718E3
4.612704191E2,1.016535263E3
4.623418091E2,1.016528244E3
4.634132081E2,1.016527939E3
4.644845731E2,1.016527939E3
4.655559851E2,1.016527939E3
4.666273991E2,1.016527939E3
4.676988221E2,1.016531067E3
4.687702161E2,1.016537018E3
4.698415721E2,1.016547089E3
4.709130111E2,1.016562424E3
4.719844091E2,1.016582642E3
4.730558511E2,1.016602097E3
4.741273321E2,1.016622925E3
4.751987371E2,1.016642838E3
4.762701081E2,1.016662292E3
4.773415051E2,1.016675262E3
4.784128741E2,1.016689682E3
4.794842841E2,1.016703110E3
4.805557031E2,1.016708145E3
4.816270991E2,1.016708145E3
4.826984871E2,1.016704178E3
4.837699131E2,1.016697540E3
4.848413571E2,1.016692734E3
4.859127501E2,1.016692123E3
4.869841751E2,1.016692123E3
4.880556131E2,1.016687927E3
4.891270461E2,1.016686630E3
4.901984521E2,1.016685638E3
4.912698531E2,1.016682892E3
4.923412381E2,1.016682892E3
4.934126441E2,1.016692123E3
4.944840211E2,1.016693802E3
4.955554581E2,1.016694641E3
4.966269481E2,1.016694641E3
4.976984321E2,1.016694489E3
4.987698931E2,1.016694489E3
4.998413421E2,1.016695480E3
5.009128001E2,1.016695480E3
5.019842381E2,1.016684799E3
5.030556641E2,1.016673203E3
5.041270661E2,1.016658936E3
5.051984811E2,1.016640320E3
5.062698801E2,1.016623688E3
5.073413091E2,1.016611557E3
5.084127431E2,1.016592331E3
5.094841991E2,1.016575699E3
5.105556351E2,1.016554489E3
5.116270621E2,1.016533203E3
5.126984491E2,1.016516724E3
5.137698301E2,1.016500854E3
5.148412131E2,1.016477051E3
5.159126051E2,1.016446533E3
5.169840051E2,1.016417694E3
5.180554091E2,1.016388397E3
5.191268441E2,1.016363754E3
5.201982651E2,1.016346970E3
5.212696121E2,1.016340408E3
5.223409281E2,1.016340408E3
5.234122611E2,1.016341019E3
5.244836201E2,1.016342468E3
5.255549371E2,1.016344376E3
5.266262021E2,1.016345901E3
5.276975281E2,1.016351471E3
5.287688401E2,1.016351471E3
5.298402151E2,1.016351166E3
5.309116041E2,1.016345367E3
5.319829771E2,1.016341248E3
5.330543541E2,1.016326675E3
5.341257591E2,1.016309280E3
5.351971851E2,1.016282425E3
5.362685471E2,1.016245651E3
5.373399591E2,1.016198120E3
5.384113331E2,1.016145859E3
5.394827001E2,1.016090546E3
5.405540721E2,1.016038437E3
5.416254191E2,1.015988007E3
5.426967531E2,1.015944138E3
5.437680991E2,1.015911102E3
5.448394801E2,1.015878525E3
5.459108841E2,1.015861664E3
5.469822871E2,1.015847321E3
5.480536781E2,1.015841599E3
5.491250491E2,1.015841599E3
5.501964211E2,1.015854111E3
5.512678381E2,1.015874939E3
5.523392741E2,1.015906067E3
5.534106891E2,1.015952377E3
5.544821251E2,1.016015396E3
5.555535591E2,1.016082458E3
5.566249851E2,1.016157074E3
5.576964051E2,1.016240997E3
5.587678141E2,1.016330032E3
5.598391901E2,1.016409836E3
5.609106171E2,1.016485825E3
5.619820131E2,1.016545029E3
5.630534491E2,1.016597672E3
5.641248461E2,1.016641159E3
5.651962591E2,1.016679535E3
5.662676921E2,1.016711502E3
5.673390951E2,1.016745605E3
5.684104801E2,1.016769028E3
5.694818871E2,1.016785049E3
5.705533281E2,1.016791534E3
5.716247251E2,1.016801224E3
5.726961221E2,1.016811905E3
5.737676041E2,1.016824188E3
5.748390431E2,1.016841202E3
5.759104841E2,1.016858292E3
5.769819111E2,1.016866913E3
5.780533501E2,1.016866913E3
5.791247571E2,1.016866455E3
5.801961541E2,1.016862640E3
5.812675781E2,1.016850281E3
5.823390481E2,1.016834869E3
5.834105041E2,1.016827850E3
5.844819231E2,1.016826706E3
5.855533281E2,1.016826706E3
5.866247171E2,1.016831970E3
5.876961081E2,1.016848145E3
5.887675001E2,1.016857376E3
5.898389081E2,1.016861801E3
5.909102931E2,1.016863327E3
5.919816881E2,1.016863327E3
5.930531101E2,1.016861877E3
5.941245311E2,1.016854630E3
5.951959391E2,1.016851730E3
5.962673441E2,1.016843719E3
5.973387551E2,1.016828995E3
5.984101971E2,1.016814880E3
5.994816121E2,1.016797867E3
6.005530311E2,1.016776810E3
6.016244741E2,1.016761017E3
6.026959201E2,1.016756821E3
6.037673411E2,1.016752625E3
6.048387551E2,1.016745148E3
6.059101531E2,1.016742630E3
6.069815611E2,1.016734314E3
6.080530041E2,1.016715317E3
6.091244771E2,1.016699524E3
6.101958701E2,1.016695099E3
6.112672871E2,1.016690826E3
6.123387191E2,1.016688614E3
6.134101091E2,1.016688614E3
6.144815411E2,1.016692581E3
6.155530011E2,1.016698227E3
6.166244521E2,1.016699677E3
6.176958711E2,1.016704407E3
6.187673191E2,1.016706696E3
6.198387351E2,1.016710434E3
6.209101221E2,1.016713943E3
6.219815381E2,1.016719131E3
6.230529581E2,1.016724319E3
6.241243741E2,1.016727982E3
6.251957551E2,1.016727982E3
6.262671591E2,1.016725006E3
6.273385611E2,1.016722641E3
6.284100151E2,1.016719971E3
6.294814241E2,1.016718292E3
6.305528291E2,1.016714020E3
6.316242831E2,1.016708374E3
6.326957111E2,1.016701431E3
6.337671681E2,1.016696930E3
6.348386401E2,1.016691666E3
6.359100511E2,1.016691666E3
6.369814911E2,1.016691895E3
6.380529101E2,1.016693878E3
6.391243161E2,1.016694489E3
6.401957401E2,1.016696548E3
6.412671761E2,1.016702042E3
6.423386331E2,1.016706314E3
6.434100441E2,1.016706314E3
6.444814611E2,1.016699142E3
6.455528851E2,1.016692123E3
6.466243161E2,1.016686859E3
6.476957461E2,1.016680603E3
6.487671711E2,1.016675262E3
6.498386061E2,1.016675262E3
6.509100741E2,1.016678238E3
6.519815251E2,1.016680298E3
6.530530291E2,1.016681442E3
6.541244701E2,1.016684113E3
6.551959121E2,1.016689835E3
6.562673201E2,1.016694641E3
6.573387171E2,1.016694641E3
6.584101331E2,1.016691284E3
6.594815701E2,1.016689148E3
6.605529731E2,1.016684952E3
6.616243721E2,1.016676941E3
6.626957961E2,1.016675491E3
6.637672441E2,1.016675491E3
6.648386951E2,1.016678314E3
6.659101261E2,1.016686249E3
6.669815771E2,1.016697235E3
6.680530471E2,1.016708374E3
6.691244831E2,1.016708374E3
6.701959021E2,1.016706619E3
6.712673301E2,1.016703262E3
6.723387561E2,1.016696167E3
6.734102181E2,1.016692429E3
6.744816771E2,1.016692429E3
6.755531461E2,1.016699371E3
6.766245881E2,1.016710205E3
6.776960891E2,1.016721573E3
6.787675431E2,1.016721573E3
6.798389811E2,1.016702271E3
6.809104451E2,1.016666107E3
6.819818941E2,1.016627045E3
6.830533341E2,1.016586685E3
6.841247611E2,1.016556396E3
6.851961991E2,1.016548386E3
6.862676371E2,1.016548386E3
6.873390831E2,1.016548386E3
6.884105191E2,1.016545486E3
6.894819321E2,1.016536102E3
6.905533531E2,1.016528778E3
6.916247771E2,1.016515961E3
6.926961501E2,1.016509171E3
6.937675521E2,1.016502533E3
6.948389431E2,1.016498718E3
6.959103731E2,1.016491165E3
6.969817821E2,1.016484756E3
6.980532371E2,1.016473465E3
6.991247011E2,1.016466217E3
7.001961371E2,1.016457901E3
7.012675941E2,1.016450653E3
7.023389941E2,1.016446304E3
7.034103771E2,1.016445007E3
7.044817651E2,1.016442947E3
7.055531331E2,1.016442032E3
7.066245091E2,1.016442032E3
7.076959081E2,1.016442032E3
7.087673001E2,1.016443634E3
7.098387111E2,1.016443634E3
7.109101311E2,1.016443634E3
7.119815061E2,1.016443939E3
7.130529011E2,1.016445847E3
7.141243011E2,1.016446075E3
7.151956861E2,1.016446304E3
7.162671051E2,1.016447906E3
7.173385361E2,1.016447906E3
7.184099471E2,1.016445465E3
7.194813521E2,1.016443558E3
7.205527781E2,1.016439285E3
7.216241751E2,1.016437607E3
7.226955741E2,1.016432571E3
7.237670091E2,1.016426010E3
7.248384161E2,1.016420135E3
7.259098861E2,1.016414719E3
7.269813751E2,1.016403351E3
7.280528071E2,1.016389847E3
7.291242501E2,1.016380005E3
7.301956891E2,1.016367493E3
7.312671411E2,1.016355591E3
7.323385271E2,1.016341705E3
7.334099261E2,1.016330643E3
7.344812921E2,1.016323547E3
7.355527311E2,1.016316376E3
7.366241541E2,1.016305389E3
7.376956381E2,1.016297150E3
7.387670911E2,1.016284103E3
7.398385461E2,1.016266708E3
7.409099861E2,1.016250305E3
7.419814661E2,1.016233673E3
7.430529271E2,1.016213913E3
7.441243511E2,1.016193237E3
7.451957751E2,1.016169434E3
7.462672011E2,1.016140747E3
7.473386771E2,1.016110535E3
7.484101191E2,1.016082916E3
7.494815661E2,1.016058655E3
7.505530201E2,1.016037674E3
7.516244701E2,1.016019592E3
7.526958901E2,1.016004028E3
7.537672921E2,1.015988998E3
7.548387091E2,1.015972595E3
7.559100461E2,1.015956039E3
7.569814611E2,1.015934982E3
7.580528341E2,1.015908585E3
7.591241651E2,1.015883102E3
7.601955031E2,1.015859299E3
7.612668731E2,1.015837402E3
