"Time (s)","X (hPa)"
-5.008378334E-1,1.026937103E3
5.298751666E-1,1.026950073E3
1.560545167E0,1.026963120E3
2.591246167E0,1.026980743E3
3.621917167E0,1.026980743E3
3.817103167E0,1.026976089E3
4.881092167E0,1.026975327E3
5.945074167E0,1.026975327E3
7.009109167E0,1.026973572E3
8.073097167E0,1.026973572E3
9.137099167E0,1.026975937E3
1.020105717E1,1.026977463E3
1.126501917E1,1.026977463E3
1.232899317E1,1.026973343E3
1.339298317E1,1.026969833E3
1.445693317E1,1.026963425E3
1.552088217E1,1.026956787E3
1.658484317E1,1.026938171E3
1.764884317E1,1.026895218E3
1.871281717E1,1.026811600E3
1.977671717E1,1.026735077E3
2.084058417E1,1.026667099E3
2.190455717E1,1.026620102E3
2.296853717E1,1.026620102E3
2.403253217E1,1.026674728E3
2.509653217E1,1.026752090E3
2.616050617E1,1.026830292E3
2.722449017E1,1.026902084E3
2.828848417E1,1.026939468E3
2.935245817E1,1.026961823E3
3.041642417E1,1.026965637E3
3.148037717E1,1.026965637E3
3.254433917E1,1.026955643E3
3.360833417E1,1.026942902E3
3.467227117E1,1.026942062E3
3.573627117E1,1.026942062E3
3.680033817E1,1.026951447E3
3.786435017E1,1.026962585E3
3.892833817E1,1.026970978E3
3.999229117E1,1.026970978E3
4.105625917E1,1.026970062E3
4.212018017E1,1.026954422E3
4.318414917E1,1.026939087E3
4.424815517E1,1.026916809E3
4.531215617E1,1.026898499E3
4.637614517E1,1.026892090E3
4.744011917E1,1.026892090E3
4.850401717E1,1.026894073E3
4.956792117E1,1.026908340E3
5.063189317E1,1.026927338E3
5.169587917E1,1.026930618E3
5.275989117E1,1.026930618E3
5.382387617E1,1.026929550E3
5.488787717E1,1.026927109E3
5.595187417E1,1.026917191E3
5.701587317E1,1.026911316E3
5.807985217E1,1.026899490E3
5.914381617E1,1.026890182E3
6.020777617E1,1.026884766E3
6.127174517E1,1.026879272E3
6.233569117E1,1.026879272E3
6.339965017E1,1.026884155E3
6.446361217E1,1.026885757E3
6.552759317E1,1.026888123E3
6.659155317E1,1.026887970E3
6.765548017E1,1.026887970E3
6.871941717E1,1.026887970E3
6.978337717E1,1.026882477E3
7.084739017E1,1.026877747E3
7.191144217E1,1.026877213E3
7.297543817E1,1.026877747E3
7.403947317E1,1.026879272E3
7.510350517E1,1.026890640E3
7.616749517E1,1.026890640E3
7.723138017E1,1.026885986E3
7.829531617E1,1.026877747E3
7.935929817E1,1.026868134E3
8.042331117E1,1.026849442E3
8.148734217E1,1.026839066E3
8.255126917E1,1.026828766E3
8.361518317E1,1.026817780E3
8.467911417E1,1.026812820E3
8.574306617E1,1.026812820E3
8.680712217E1,1.026819305E3
8.787116017E1,1.026832809E3
8.893519817E1,1.026851120E3
8.999928717E1,1.026858673E3
9.106328217E1,1.026869659E3
9.212723417E1,1.026872559E3
9.319118617E1,1.026872559E3
9.425514717E1,1.026867905E3
9.531913617E1,1.026865616E3
9.638308017E1,1.026850510E3
9.744701117E1,1.026816177E3
9.851096517E1,1.026779938E3
9.957494217E1,1.026744308E3
1.006389702E2,1.026744308E3
1.017030012E2,1.026749191E3
1.027669932E2,1.026786499E3
1.038309302E2,1.026826706E3
1.048949062E2,1.026863708E3
1.059589422E2,1.026892395E3
1.070229452E2,1.026894379E3
1.080869202E2,1.026898804E3
1.091508492E2,1.026899643E3
1.102147592E2,1.026905212E3
1.112787042E2,1.026908340E3
1.123426142E2,1.026908340E3
1.134066082E2,1.026907043E3
1.144706512E2,1.026905975E3
1.155346452E2,1.026901016E3
1.165986132E2,1.026889877E3
1.176625832E2,1.026885605E3
1.187265642E2,1.026885223E3
1.197905742E2,1.026884918E3
1.208545822E2,1.026879807E3
1.219186302E2,1.026874390E3
1.229826632E2,1.026868362E3
1.240466722E2,1.026867676E3
1.251106682E2,1.026860733E3
1.261746342E2,1.026860733E3
1.272386012E2,1.026866074E3
1.283025922E2,1.026866074E3
1.293666542E2,1.026861572E3
1.304306782E2,1.026858826E3
1.314946552E2,1.026858826E3
1.325586732E2,1.026863022E3
1.336227002E2,1.026869583E3
1.346867682E2,1.026881790E3
1.357507902E2,1.026890640E3
1.368148212E2,1.026899872E3
1.378788862E2,1.026904526E3
1.389429502E2,1.026907120E3
1.400069892E2,1.026908798E3
1.410710492E2,1.026914215E3
1.421351222E2,1.026914215E3
1.431992342E2,1.026914215E3
1.442633552E2,1.026914062E3
1.453274372E2,1.026914062E3
1.463915422E2,1.026910019E3
1.474556292E2,1.026910019E3
1.485197162E2,1.026911316E3
1.495838342E2,1.026912918E3
1.506479032E2,1.026916580E3
1.517120002E2,1.026928329E3
1.527760612E2,1.026930389E3
1.538401922E2,1.026930389E3
1.549042992E2,1.026930389E3
1.559683662E2,1.026930084E3
1.570324772E2,1.026928101E3
1.580965652E2,1.026917801E3
1.591606402E2,1.026916504E3
1.602247902E2,1.026916504E3
1.612888922E2,1.026916962E3
1.623529452E2,1.026920319E3
1.634170182E2,1.026925659E3
1.644810932E2,1.026928787E3
1.655451862E2,1.026930466E3
1.666093202E2,1.026930466E3
1.676734952E2,1.026930466E3
1.687375782E2,1.026930466E3
1.698016602E2,1.026931305E3
1.708656992E2,1.026932602E3
1.719297432E2,1.026933441E3
1.729938492E2,1.026940384E3
1.740580232E2,1.026940384E3
1.751221652E2,1.026935959E3
1.761862762E2,1.026935272E3
1.772503842E2,1.026935272E3
1.783145082E2,1.026928787E3
1.793786012E2,1.026928787E3
1.804426772E2,1.026933975E3
1.815068022E2,1.026933975E3
1.825709422E2,1.026913605E3
1.836350792E2,1.026913605E3
1.846991822E2,1.026935501E3
1.857633022E2,1.026947861E3
1.868274332E2,1.026969147E3
1.878915802E2,1.027004776E3
1.889557342E2,1.027004776E3
1.900199202E2,1.026989822E3
1.910840972E2,1.026966019E3
1.921482442E2,1.026942902E3
1.932123952E2,1.026919861E3
1.942765192E2,1.026899948E3
1.953406652E2,1.026885147E3
1.964048602E2,1.026878891E3
1.974690032E2,1.026878891E3
1.985331552E2,1.026880722E3
1.995972392E2,1.026884537E3
2.006613782E2,1.026887741E3
2.017254742E2,1.026887741E3
2.027895882E2,1.026878204E3
2.038537412E2,1.026871872E3
2.049178392E2,1.026854477E3
2.059819702E2,1.026836548E3
2.070460512E2,1.026820068E3
2.081100942E2,1.026807098E3
2.091741092E2,1.026793213E3
2.102381802E2,1.026792145E3
2.113022642E2,1.026779022E3
2.123663682E2,1.026773148E3
2.134305022E2,1.026771545E3
2.144945632E2,1.026771545E3
2.155586572E2,1.026771545E3
2.166227942E2,1.026781616E3
2.176869002E2,1.026781616E3
2.187509922E2,1.026780396E3
2.198151032E2,1.026777344E3
2.208791982E2,1.026772919E3
2.219433122E2,1.026772919E3
2.230074062E2,1.026784973E3
2.240715202E2,1.026789856E3
2.251355932E2,1.026800919E3
2.261997472E2,1.026809235E3
2.272638712E2,1.026814499E3
2.283279922E2,1.026815262E3
2.293920952E2,1.026815262E3
2.304562142E2,1.026815262E3
2.315202632E2,1.026809006E3
2.325843212E2,1.026794815E3
2.336484102E2,1.026789246E3
2.347125242E2,1.026784515E3
2.357766752E2,1.026771698E3
2.368407752E2,1.026749725E3
2.379048692E2,1.026736298E3
2.389689692E2,1.026702652E3
2.400330732E2,1.026667938E3
2.410972052E2,1.026651230E3
2.421612972E2,1.026651230E3
2.432253552E2,1.026654892E3
2.442893642E2,1.026691666E3
2.453534152E2,1.026724091E3
2.464174872E2,1.026752701E3
2.474815662E2,1.026778717E3
2.485456652E2,1.026779861E3
2.496097952E2,1.026779861E3
2.506738752E2,1.026769867E3
2.517379852E2,1.026769791E3
2.528021152E2,1.026769791E3
2.538662742E2,1.026782303E3
2.549304462E2,1.026782303E3
2.559945702E2,1.026769333E3
2.570586842E2,1.026760788E3
2.581227942E2,1.026756134E3
2.591868812E2,1.026756134E3
2.602509582E2,1.026767120E3
2.613150782E2,1.026800919E3
2.623791792E2,1.026842422E3
2.634432882E2,1.026872711E3
2.645074032E2,1.026893616E3
2.655714922E2,1.026909027E3
2.666355812E2,1.026914597E3
2.676996242E2,1.026914597E3
2.687637652E2,1.026912155E3
2.698279362E2,1.026903915E3
2.708919852E2,1.026893387E3
2.719560342E2,1.026887283E3
2.730201022E2,1.026882477E3
2.740842042E2,1.026871490E3
2.751482982E2,1.026865616E3
2.762124302E2,1.026862259E3
2.772765982E2,1.026855545E3
2.783407002E2,1.026848907E3
2.794047742E2,1.026843643E3
2.804688432E2,1.026835938E3
2.815329262E2,1.026831512E3
2.825969842E2,1.026831512E3
2.836610162E2,1.026838379E3
2.847250612E2,1.026850433E3
2.857890962E2,1.026861649E3
2.868531002E2,1.026861649E3
2.879171532E2,1.026858063E3
2.889812762E2,1.026839523E3
2.900453812E2,1.026819229E3
2.911094572E2,1.026798019E3
2.921735022E2,1.026794815E3
2.932375582E2,1.026794815E3
2.943015672E2,1.026804810E3
2.953655822E2,1.026815262E3
2.964296452E2,1.026828537E3
2.974937252E2,1.026828537E3
2.985578072E2,1.026821442E3
2.996219292E2,1.026816330E3
3.006860672E2,1.026807861E3
3.017501792E2,1.026795883E3
3.028143092E2,1.026791306E3
3.038784472E2,1.026791306E3
3.049425622E2,1.026794510E3
3.060067112E2,1.026795120E3
3.070708682E2,1.026809616E3
3.081350252E2,1.026809998E3
3.091991672E2,1.026810226E3
3.102633032E2,1.026811905E3
3.113274952E2,1.026811905E3
3.123916812E2,1.026815338E3
3.134558252E2,1.026816177E3
3.145200002E2,1.026819077E3
3.155841412E2,1.026819077E3
3.166483302E2,1.026819077E3
3.177124882E2,1.026816711E3
3.187766072E2,1.026816101E3
3.198407642E2,1.026814194E3
3.209048752E2,1.026810684E3
3.219689622E2,1.026808929E3
3.230330592E2,1.026796112E3
3.240971522E2,1.026795349E3
3.251612572E2,1.026794205E3
3.262253552E2,1.026785431E3
3.272895112E2,1.026770401E3
3.283536502E2,1.026755981E3
3.294178062E2,1.026743927E3
3.304819492E2,1.026728973E3
3.315460772E2,1.026703491E3
3.326102202E2,1.026692581E3
3.336743142E2,1.026682510E3
3.347383952E2,1.026666412E3
3.358024802E2,1.026666412E3
3.368665522E2,1.026678238E3
3.379306332E2,1.026686859E3
3.389947422E2,1.026706238E3
3.400588942E2,1.026732559E3
3.411229862E2,1.026750183E3
3.421870492E2,1.026764145E3
3.432511572E2,1.026779709E3
3.443152272E2,1.026779709E3
3.453792752E2,1.026770935E3
3.464433162E2,1.026760406E3
3.475073002E2,1.026743088E3
3.485713202E2,1.026722412E3
3.496353042E2,1.026722412E3
3.506993362E2,1.026728821E3
3.517633522E2,1.026733780E3
3.528273782E2,1.026751709E3
3.538914092E2,1.026781845E3
3.549554232E2,1.026790695E3
3.560194172E2,1.026797028E3
3.570834572E2,1.026804504E3
3.581475352E2,1.026804962E3
3.592115782E2,1.026805878E3
3.602755882E2,1.026807480E3
3.613396702E2,1.026808929E3
3.624037022E2,1.026808929E3
3.634677872E2,1.026806412E3
3.645318392E2,1.026793976E3
3.655959072E2,1.026789780E3
3.666599332E2,1.026789627E3
3.677239932E2,1.026784134E3
3.687880202E2,1.026780167E3
3.698520632E2,1.026779480E3
3.709160702E2,1.026773834E3
3.719800602E2,1.026761017E3
3.730441402E2,1.026747284E3
3.741082262E2,1.026733780E3
3.751723252E2,1.026715317E3
3.762364762E2,1.026705017E3
3.773005812E2,1.026705017E3
3.783646832E2,1.026711731E3
3.794287742E2,1.026724167E3
3.804928672E2,1.026743927E3
3.815570412E2,1.026759720E3
3.826211732E2,1.026759720E3
3.836852752E2,1.026759109E3
3.847493582E2,1.026758270E3
3.858134282E2,1.026753387E3
3.868774922E2,1.026741562E3
3.879415202E2,1.026736298E3
3.890055842E2,1.026729813E3
3.900696462E2,1.026721344E3
3.911337512E2,1.026711884E3
3.921978792E2,1.026711121E3
3.932619922E2,1.026704025E3
3.943260712E2,1.026698837E3
3.953901242E2,1.026690826E3
3.964541962E2,1.026687469E3
3.975182812E2,1.026687469E3
3.985824342E2,1.026700592E3
3.996464872E2,1.026726685E3
4.007105622E2,1.026745453E3
4.017746212E2,1.026770630E3
4.028387112E2,1.026791229E3
4.039027852E2,1.026799698E3
4.049668792E2,1.026800613E3
4.060309552E2,1.026814270E3
4.070950472E2,1.026831741E3
4.081591062E2,1.026842651E3
4.092232292E2,1.026857986E3
4.102873212E2,1.026873779E3
4.113513072E2,1.026876678E3
4.124153552E2,1.026876678E3
4.134794182E2,1.026875763E3
4.145435082E2,1.026870804E3
4.156076402E2,1.026857834E3
4.166717842E2,1.026844330E3
4.177359412E2,1.026834641E3
4.188000502E2,1.026821136E3
4.198641552E2,1.026804962E3
4.209282792E2,1.026787338E3
4.219923752E2,1.026769638E3
4.230564592E2,1.026751022E3
4.241205492E2,1.026735229E3
4.251846682E2,1.026724777E3
4.262488012E2,1.026719437E3
4.273129542E2,1.026715927E3
4.283770892E2,1.026712189E3
4.294411922E2,1.026703949E3
4.305052362E2,1.026703949E3
4.315692502E2,1.026708298E3
4.326333362E2,1.026714630E3
4.336974212E2,1.026719742E3
4.347615052E2,1.026745758E3
4.358256452E2,1.026770477E3
4.368897952E2,1.026782150E3
4.379539212E2,1.026802826E3
4.390180632E2,1.026817398E3
4.400821312E2,1.026817398E3
4.411462582E2,1.026813354E3
4.422103592E2,1.026812744E3
4.432744912E2,1.026799316E3
4.443385982E2,1.026786270E3
4.454026512E2,1.026781006E3
4.464666912E2,1.026781006E3
4.475307782E2,1.026792526E3
4.485948022E2,1.026810913E3
4.496588622E2,1.026822891E3
4.507228962E2,1.026828384E3
4.517869842E2,1.026828384E3
4.528510232E2,1.026813583E3
4.539150592E2,1.026800079E3
4.549791022E2,1.026791916E3
4.560431622E2,1.026790390E3
4.571072012E2,1.026786880E3
4.581712302E2,1.026786880E3
4.592352512E2,1.026786499E3
4.602992512E2,1.026786499E3
4.613632622E2,1.026786499E3
4.624272442E2,1.026778412E3
4.634912512E2,1.026771088E3
4.645552912E2,1.026759567E3
4.656192812E2,1.026753769E3
4.666832802E2,1.026741867E3
4.677473532E2,1.026735229E3
4.688114332E2,1.026718903E3
4.698754762E2,1.026695099E3
4.709395762E2,1.026673431E3
4.720037162E2,1.026673431E3
4.730678102E2,1.026676788E3
4.741318902E2,1.026693192E3
4.751959612E2,1.026716156E3
4.762599842E2,1.026723557E3
4.773240532E2,1.026723557E3
4.783881292E2,1.026706238E3
4.794522612E2,1.026686020E3
4.805163512E2,1.026670303E3
4.815804662E2,1.026662445E3
4.826446212E2,1.026657562E3
4.837087252E2,1.026656723E3
4.847728562E2,1.026654663E3
4.858369862E2,1.026649780E3
4.869010692E2,1.026637344E3
4.879651722E2,1.026635056E3
4.890292942E2,1.026635056E3
4.900933832E2,1.026641769E3
4.911574852E2,1.026656494E3
4.922216132E2,1.026675262E3
4.932856582E2,1.026679535E3
4.943496772E2,1.026679535E3
4.954137202E2,1.026669006E3
4.964777682E2,1.026645432E3
4.975417942E2,1.026624298E3
4.986058532E2,1.026608353E3
4.996699212E2,1.026594925E3
5.007341032E2,1.026579971E3
5.017982002E2,1.026578903E3
5.028622482E2,1.026578903E3
5.039262952E2,1.026577225E3
5.049904042E2,1.026577225E3
5.060544542E2,1.026572952E3
5.071185212E2,1.026566086E3
5.081826192E2,1.026556549E3
5.092467242E2,1.026544418E3
5.103108292E2,1.026532135E3
5.113748972E2,1.026532135E3
5.124389292E2,1.026533051E3
5.135029392E2,1.026535492E3
5.145670302E2,1.026536560E3
5.156310932E2,1.026539536E3
5.166951252E2,1.026539536E3
5.177592052E2,1.026551285E3
5.188232212E2,1.026564941E3
5.198872232E2,1.026580200E3
5.209513012E2,1.026609650E3
5.220153622E2,1.026636124E3
5.230794142E2,1.026642456E3
5.241434482E2,1.026642456E3
5.252074962E2,1.026634674E3
5.262715532E2,1.026620102E3
5.273356302E2,1.026608810E3
5.283996852E2,1.026608810E3
5.294637442E2,1.026611710E3
5.305278602E2,1.026612778E3
5.315920202E2,1.026612778E3
5.326561472E2,1.026614456E3
5.337202742E2,1.026615982E3
5.347843432E2,1.026616364E3
5.358484392E2,1.026624603E3
5.369125532E2,1.026637192E3
5.379766832E2,1.026648102E3
5.390408452E2,1.026655121E3
5.401049692E2,1.026657410E3
5.411690442E2,1.026659698E3
5.422331062E2,1.026659698E3
5.432972192E2,1.026659698E3
5.443612452E2,1.026661148E3
5.454252462E2,1.026661835E3
5.464892612E2,1.026663742E3
5.475532962E2,1.026661835E3
5.486173732E2,1.026653595E3
5.496814332E2,1.026640167E3
5.507455062E2,1.026626511E3
5.518095492E2,1.026615524E3
5.528736282E2,1.026606369E3
5.539377372E2,1.026606369E3
5.550017782E2,1.026606369E3
5.560658112E2,1.026601410E3
5.571298802E2,1.026601410E3
5.581939072E2,1.026604767E3
5.592579692E2,1.026614609E3
5.603220502E2,1.026639862E3
5.613861412E2,1.026665649E3
5.624502022E2,1.026691971E3
5.635142572E2,1.026704178E3
5.645783412E2,1.026713791E3
5.656423882E2,1.026718445E3
5.667064792E2,1.026721573E3
5.677706112E2,1.026730652E3
5.688346372E2,1.026730652E3
5.698987232E2,1.026729431E3
5.709627962E2,1.026725769E3
5.720268872E2,1.026714935E3
5.730909902E2,1.026710663E3
5.741550742E2,1.026710663E3
5.752191612E2,1.026722183E3
5.762832482E2,1.026728516E3
5.773473612E2,1.026742172E3
5.784114152E2,1.026742172E3
5.794755332E2,1.026739502E3
5.805395952E2,1.026736526E3
5.816036132E2,1.026734238E3
5.826676262E2,1.026731567E3
5.837316772E2,1.026729355E3
5.847957132E2,1.026726074E3
5.858597972E2,1.026712799E3
5.869238602E2,1.026697998E3
5.879879562E2,1.026686478E3
5.890520052E2,1.026676788E3
5.901160822E2,1.026676788E3
5.911801322E2,1.026679535E3
5.922442092E2,1.026691437E3
5.933083342E2,1.026696777E3
5.943724712E2,1.026698608E3
5.954365902E2,1.026701584E3
5.965007022E2,1.026701584E3
5.975648102E2,1.026688156E3
5.986289592E2,1.026672363E3
5.996930652E2,1.026664352E3
6.007572032E2,1.026656952E3
6.018212682E2,1.026650391E3
6.028852722E2,1.026650391E3
6.039492912E2,1.026662445E3
6.050133382E2,1.026673355E3
6.060773562E2,1.026677856E3
6.071414052E2,1.026677856E3
6.082054442E2,1.026671143E3
6.092695062E2,1.026671143E3
6.103336042E2,1.026669617E3
6.113977312E2,1.026673355E3
6.124618332E2,1.026669617E3
6.135259092E2,1.026671143E3
6.145899542E2,1.026669235E3
6.156540092E2,1.026666412E3
6.167180892E2,1.026666412E3
6.177821932E2,1.026669235E3
6.188462682E2,1.026682053E3
6.199103662E2,1.026686630E3
6.209744442E2,1.026686630E3
6.220385522E2,1.026670685E3
6.231026252E2,1.026650391E3
6.241665982E2,1.026636124E3
6.252305912E2,1.026619873E3
6.262946122E2,1.026610031E3
6.273586332E2,1.026610031E3
6.284226892E2,1.026617889E3
6.294866582E2,1.026619339E3
6.305506812E2,1.026631775E3
6.316146362E2,1.026643982E3
6.326786552E2,1.026645432E3
6.337427202E2,1.026655045E3
6.348067612E2,1.026665878E3
6.358708122E2,1.026665878E3
6.369348262E2,1.026665192E3
6.379988822E2,1.026663666E3
6.390629572E2,1.026660309E3
6.401269372E2,1.026651077E3
6.411909532E2,1.026637573E3
6.422549662E2,1.026632767E3
6.433189642E2,1.026616821E3
6.443829462E2,1.026611328E3
6.454469022E2,1.026609650E3
6.465108382E2,1.026605835E3
6.475748052E2,1.026609421E3
6.486387892E2,1.026609421E3
6.497028192E2,1.026609421E3
6.507667882E2,1.026604919E3
6.518307742E2,1.026604919E3
6.528947262E2,1.026598434E3
6.539586812E2,1.026594696E3
6.550226622E2,1.026594696E3
6.560865822E2,1.026596756E3
6.571505042E2,1.026617889E3
6.582143962E2,1.026638870E3
6.592782562E2,1.026661377E3
6.603421392E2,1.026681137E3
6.614060912E2,1.026681137E3
6.624700762E2,1.026660614E3
6.635340322E2,1.026651306E3
6.645980392E2,1.026644287E3
6.656620602E2,1.026637802E3
6.667260652E2,1.026637802E3
6.677901082E2,1.026648941E3
6.688541482E2,1.026659241E3
6.699181952E2,1.026677017E3
6.709822212E2,1.026689835E3
6.720462012E2,1.026689835E3
6.731101562E2,1.026681824E3
6.741740902E2,1.026679535E3
6.752380992E2,1.026668777E3
6.763020582E2,1.026663055E3
6.773660672E2,1.026663055E3
6.784300692E2,1.026663055E3
6.794939982E2,1.026643066E3
6.805579452E2,1.026631470E3
6.816218552E2,1.026622772E3
6.826857402E2,1.026622772E3
6.837496572E2,1.026625366E3
6.848136222E2,1.026647568E3
6.858775882E2,1.026662216E3
6.869415322E2,1.026668396E3
6.880055002E2,1.026674042E3
6.890693932E2,1.026674423E3
6.901333392E2,1.026682510E3
6.911972732E2,1.026698074E3
6.922611992E2,1.026712570E3
6.933251342E2,1.026715469E3
6.943891062E2,1.026718597E3
6.954529852E2,1.026718597E3
6.965168862E2,1.026716995E3
6.975808592E2,1.026706619E3
6.986447782E2,1.026700592E3
6.997087062E2,1.026688766E3
7.007726372E2,1.026680374E3
7.018365472E2,1.026680374E3
7.029004622E2,1.026685333E3
7.039643152E2,1.026701202E3
7.050282432E2,1.026719513E3
7.060921212E2,1.026740952E3
7.071559552E2,1.026751022E3
7.082198302E2,1.026759109E3
7.092837192E2,1.026759109E3
7.103476682E2,1.026753540E3
7.114115442E2,1.026742706E3
7.124754282E2,1.026720734E3
7.135393222E2,1.026682434E3
7.146032262E2,1.026662445E3
7.156672322E2,1.026643677E3
7.167311622E2,1.026643677E3
7.177950622E2,1.026656799E3
7.188589762E2,1.026683044E3
7.199229242E2,1.026707230E3
7.209868642E2,1.026725006E3
7.220507562E2,1.026725006E3
7.231146562E2,1.026721191E3
7.241785522E2,1.026714706E3
7.252424352E2,1.026713943E3
7.263062982E2,1.026713943E3
7.273701772E2,1.026728821E3
7.284340552E2,1.026742020E3
7.294979542E2,1.026743698E3
7.305618452E2,1.026743698E3
7.316257752E2,1.026735687E3
7.326896572E2,1.026719742E3
7.337535232E2,1.026701202E3
7.348174042E2,1.026686935E3
7.358813152E2,1.026681213E3
7.369452082E2,1.026667023E3
7.380090772E2,1.026655350E3
7.390729292E2,1.026652985E3
7.401367582E2,1.026652985E3
7.412006132E2,1.026659317E3
7.422645512E2,1.026662827E3
7.433285282E2,1.026662827E3
7.443924002E2,1.026658478E3
7.454562562E2,1.026658478E3
7.465201602E2,1.026660995E3
7.475840912E2,1.026671906E3
7.486480182E2,1.026682053E3
7.497119882E2,1.026700363E3
7.507759382E2,1.026700363E3
7.518399042E2,1.026693649E3
7.529038562E2,1.026681595E3
7.539677722E2,1.026668777E3
7.550316962E2,1.026652145E3
7.560956802E2,1.026645126E3
