"Time (s)","X (µT)","Y (µT)","Z (µT)"
1.899612500E-2,-7.298950195E0,-4.647099304E1,-2.690470886E1
3.885012498E-2,-7.459396362E0,-4.641982269E1,-2.680194092E1
5.870412500E-2,-7.500450134E0,-4.611879730E1,-2.702071381E1
7.855812501E-2,-8.204963684E0,-4.586749268E1,-2.670487976E1
9.841212499E-2,-8.781677246E0,-4.559245300E1,-2.743724060E1
1.182661250E-1,-9.731903076E0,-4.527102661E1,-2.727691650E1
1.381191250E-1,-1.097959900E1,-4.501754761E1,-2.751311493E1
1.579731250E-1,-1.236376953E1,-4.430518341E1,-2.816209412E1
1.778271250E-1,-1.371530914E1,-4.389945221E1,-2.769873047E1
1.976811250E-1,-1.462724304E1,-4.353212738E1,-2.764428711E1
2.175351250E-1,-1.583749390E1,-4.322769928E1,-2.729442596E1
2.373881250E-1,-1.708520508E1,-4.289859772E1,-2.673636627E1
2.572421250E-1,-1.819432068E1,-4.250953674E1,-2.609188843E1
2.770961250E-1,-2.010448456E1,-4.199135590E1,-2.533961487E1
2.969501250E-1,-2.206938171E1,-4.099745178E1,-2.506678009E1
3.168041250E-1,-2.415069580E1,-3.986174011E1,-2.440131378E1
3.366581250E-1,-2.586111450E1,-3.924122620E1,-2.328352356E1
3.565111250E-1,-2.676902008E1,-3.906716919E1,-2.282422638E1
3.763651250E-1,-2.791179657E1,-3.912762451E1,-2.030256653E1
3.962191250E-1,-2.798175049E1,-3.957470703E1,-1.898908234E1
4.160731250E-1,-2.798528290E1,-4.015126801E1,-1.792813873E1
4.359271250E-1,-2.807727814E1,-4.021346283E1,-1.638892365E1
4.557811250E-1,-2.788618469E1,-4.035633850E1,-1.480261230E1
4.756341250E-1,-2.819474030E1,-4.047351074E1,-1.368437958E1
4.954881250E-1,-2.757880402E1,-4.010333252E1,-1.548708344E1
5.153421250E-1,-2.686887360E1,-3.915274048E1,-1.776867676E1
5.351961250E-1,-2.586548615E1,-3.867773438E1,-2.108716583E1
5.550508750E-1,-2.524523163E1,-3.754384613E1,-2.307054901E1
5.749048750E-1,-2.537998199E1,-3.671720886E1,-2.482603455E1
5.947578750E-1,-2.558897400E1,-3.640139008E1,-2.546201324E1
6.146118750E-1,-2.648859406E1,-3.644190979E1,-2.477323151E1
6.344658750E-1,-2.765499878E1,-3.619913483E1,-2.386793518E1
6.543198750E-1,-2.901545715E1,-3.565999603E1,-2.342040253E1
6.741738750E-1,-2.967652130E1,-3.447807312E1,-2.453295135E1
6.940268750E-1,-2.974365997E1,-3.337484741E1,-2.618653870E1
7.138808750E-1,-2.984297943E1,-3.246698761E1,-2.707303619E1
7.337348750E-1,-3.038125610E1,-3.231224060E1,-2.673619080E1
7.535888750E-1,-3.101372528E1,-3.260107422E1,-2.563139343E1
7.734428750E-1,-3.160721588E1,-3.276381683E1,-2.454815674E1
7.932968750E-1,-3.222525024E1,-3.246704102E1,-2.381607056E1
8.131498750E-1,-3.219597626E1,-3.244695282E1,-2.395690155E1
8.330038750E-1,-3.251468658E1,-3.242742920E1,-2.342259979E1
8.528578750E-1,-3.313195038E1,-3.236852264E1,-2.307981873E1
8.727118750E-1,-3.413091278E1,-3.140103149E1,-2.287692261E1
8.925658750E-1,-3.432063293E1,-3.066168213E1,-2.355768585E1
9.124198750E-1,-3.452744293E1,-2.981887817E1,-2.475356293E1
9.322728750E-1,-3.444098663E1,-2.875381470E1,-2.654561615E1
9.521268750E-1,-3.398352051E1,-2.810723877E1,-2.831128693E1
9.719808750E-1,-3.387323761E1,-2.745201874E1,-2.942201996E1
9.918348750E-1,-3.391950989E1,-2.758596802E1,-2.955361938E1
1.011688875E0,-3.445081329E1,-2.763943481E1,-2.904424286E1
1.031541875E0,-3.468334198E1,-2.766897583E1,-2.845031738E1
1.051395875E0,-3.475680542E1,-2.799512482E1,-2.874948120E1
1.071249875E0,-3.451626587E1,-2.791498566E1,-2.899604034E1
1.091103875E0,-3.505799866E1,-2.771807861E1,-2.918335724E1
1.110957875E0,-3.511732483E1,-2.750647736E1,-2.922882843E1
1.130811875E0,-3.508097839E1,-2.750385284E1,-2.964556885E1
1.150664875E0,-3.526918793E1,-2.708184052E1,-2.988053894E1
1.170518875E0,-3.555049896E1,-2.692566681E1,-3.043694305E1
1.190372875E0,-3.517057800E1,-2.685849762E1,-3.011895752E1
1.210226875E0,-3.529072571E1,-2.652299500E1,-3.075271606E1
1.230080875E0,-3.545514679E1,-2.634307861E1,-3.116599274E1
1.249933875E0,-3.612805176E1,-2.616368103E1,-3.086520386E1
1.269787875E0,-3.622766876E1,-2.580107117E1,-3.074353790E1
1.289641875E0,-3.677898407E1,-2.562302399E1,-3.108586121E1
1.309495875E0,-3.688016510E1,-2.526324463E1,-3.088613892E1
1.329349875E0,-3.705327606E1,-2.505825806E1,-3.103555298E1
1.349203875E0,-3.700257111E1,-2.503901672E1,-3.116123199E1
1.369056875E0,-3.726208496E1,-2.472917938E1,-3.108569336E1
1.388910875E0,-3.724922943E1,-2.442033386E1,-3.047559357E1
1.408764875E0,-3.781889343E1,-2.440868378E1,-2.992970276E1
1.428618875E0,-3.855859375E1,-2.459926605E1,-2.903048706E1
1.448472875E0,-3.871552277E1,-2.461660767E1,-2.815036774E1
1.468325875E0,-3.951258087E1,-2.492049408E1,-2.656756592E1
1.488179875E0,-4.071147156E1,-2.543318176E1,-2.404768372E1
1.508033875E0,-4.156732941E1,-2.565007019E1,-2.168774414E1
1.527887875E0,-4.226925659E1,-2.573464966E1,-2.044100189E1
1.547741875E0,-4.216277313E1,-2.555567169E1,-2.021596527E1
1.567595792E0,-4.093358612E1,-2.530690765E1,-2.149768829E1
1.587448792E0,-3.963228607E1,-2.529319763E1,-2.285419464E1
1.607302792E0,-3.982187653E1,-2.579856110E1,-2.177787781E1
1.627156792E0,-4.030594635E1,-2.587670898E1,-1.979307556E1
1.647010792E0,-4.122715759E1,-2.586177063E1,-1.730566406E1
1.666864792E0,-4.176676941E1,-2.570985413E1,-1.565013885E1
1.686717792E0,-4.207576752E1,-2.530879974E1,-1.490265656E1
1.706571792E0,-4.254335022E1,-2.510800171E1,-1.261717987E1
1.726425792E0,-4.247011566E1,-2.532785797E1,-1.233483887E1
1.746279792E0,-4.214907837E1,-2.560970306E1,-1.186891174E1
1.766133792E0,-4.185679626E1,-2.520890045E1,-1.207070160E1
1.785986792E0,-4.187482452E1,-2.539322662E1,-1.137835693E1
1.805840792E0,-4.171048737E1,-2.545019531E1,-1.025827789E1
1.825694792E0,-4.192752075E1,-2.565689087E1,-8.180786133E0
1.845548792E0,-4.218394470E1,-2.595944214E1,-5.984115601E0
1.865402792E0,-4.212525940E1,-2.565104675E1,-4.041496277E0
1.885255792E0,-4.223498535E1,-2.581655884E1,-1.763359070E0
1.905109792E0,-4.216108704E1,-2.565849304E1,-2.648277283E-1
1.924963792E0,-4.236977386E1,-2.562247467E1,8.329849243E-1
1.944817792E0,-4.232592010E1,-2.562372589E1,1.144920349E0
1.964671792E0,-4.245177460E1,-2.575175476E1,1.659759521E0
1.984524792E0,-4.257097626E1,-2.628186798E1,2.275833130E0
2.004378792E0,-4.295938110E1,-2.613761902E1,3.893531799E0
2.024232792E0,-4.348534393E1,-2.576684570E1,5.044818878E0
2.044086792E0,-4.365623474E1,-2.546245575E1,6.213775635E0
2.063940792E0,-4.399766541E1,-2.521481323E1,6.489219666E0
2.083793792E0,-4.395764923E1,-2.484096527E1,7.644432068E0
2.103647792E0,-4.470866394E1,-2.437371826E1,8.066905975E0
2.123501792E0,-4.492398834E1,-2.418775940E1,8.037624359E0
2.143355792E0,-4.510824585E1,-2.401743317E1,8.579036713E0
2.163209792E0,-4.528348541E1,-2.389768219E1,8.493415833E0
2.183063792E0,-4.544379425E1,-2.359909821E1,8.804149628E0
2.202916792E0,-4.495665741E1,-2.361451721E1,1.007446289E1
2.222770792E0,-4.469105530E1,-2.362181091E1,1.217307281E1
2.242624792E0,-4.415345001E1,-2.333772278E1,1.502174759E1
2.262478792E0,-4.372042847E1,-2.268028259E1,1.738171768E1
2.282331792E0,-4.311317444E1,-2.234249878E1,1.882398987E1
2.302185792E0,-4.316505432E1,-2.210487366E1,2.038899612E1
2.322039792E0,-4.289377594E1,-2.144072723E1,2.177765656E1
2.341893792E0,-4.281501770E1,-2.110114288E1,2.218950272E1
2.361747792E0,-4.289672089E1,-2.141869354E1,2.169915009E1
2.381601792E0,-4.295224762E1,-2.175879669E1,2.156298828E1
2.401454792E0,-4.309682465E1,-2.169816589E1,2.182944107E1
2.421308792E0,-4.300096130E1,-2.179699707E1,2.214060974E1
2.441162792E0,-4.264337921E1,-2.154011536E1,2.298451996E1
2.461016792E0,-4.214234924E1,-2.140722656E1,2.413206482E1
2.480870792E0,-4.188853455E1,-2.057547760E1,2.628591156E1
2.500723792E0,-4.128643799E1,-1.955603790E1,2.844329834E1
2.520577792E0,-4.075997925E1,-1.814379883E1,3.011173630E1
2.540431792E0,-4.004862213E1,-1.762071228E1,3.190377617E1
2.560286125E0,-3.919773102E1,-1.690705109E1,3.418489075E1
2.580140125E0,-3.770167542E1,-1.625314331E1,3.543840790E1
2.599993125E0,-3.684871674E1,-1.540727234E1,3.702958679E1
2.619847125E0,-3.619442749E1,-1.544460297E1,3.825429535E1
2.639701125E0,-3.511769104E1,-1.533283997E1,3.922403717E1
2.659555125E0,-3.395581055E1,-1.521039581E1,4.020473862E1
2.679409125E0,-3.239752960E1,-1.490464783E1,4.147291565E1
2.699262125E0,-3.238871765E1,-1.435913086E1,4.173947144E1
2.719116125E0,-3.369209290E1,-1.482275391E1,4.062744522E1
2.738970125E0,-3.395810699E1,-1.490289307E1,3.989171982E1
2.758824125E0,-3.362754822E1,-1.462631989E1,4.025400543E1
2.778678125E0,-3.304013062E1,-1.383452606E1,4.131487274E1
2.798531125E0,-3.266977692E1,-1.231941986E1,4.222158051E1
2.818385125E0,-3.302875519E1,-1.095551300E1,4.262571716E1
2.838239125E0,-3.348069763E1,-1.011675262E1,4.289348984E1
2.858093125E0,-3.363665771E1,-9.527191162E0,4.333753967E1
2.877947125E0,-3.342713165E1,-9.370483398E0,4.321815109E1
2.897800125E0,-3.354434204E1,-9.340507507E0,4.362670898E1
2.917654125E0,-3.314085388E1,-9.542884827E0,4.398584747E1
2.937508125E0,-3.216310120E1,-9.329734802E0,4.403633881E1
2.957362125E0,-3.186975098E1,-9.202011108E0,4.489995956E1
2.977216125E0,-3.158873749E1,-9.598083496E0,4.495610809E1
2.997069125E0,-3.154751587E1,-9.891738892E0,4.471685028E1
3.016923125E0,-3.157515717E1,-1.020142365E1,4.501459885E1
3.036777125E0,-3.133129120E1,-9.989845276E0,4.526245117E1
3.056631125E0,-3.039720917E1,-9.510231018E0,4.583491516E1
3.076485125E0,-2.986046600E1,-8.856910706E0,4.651419067E1
3.096338125E0,-2.821266174E1,-7.988044739E0,4.747859573E1
3.116192125E0,-2.686859894E1,-7.136535645E0,4.832962036E1
3.136046125E0,-2.565997314E1,-6.827728271E0,4.931845093E1
3.155900125E0,-2.476963806E1,-6.742485046E0,4.943402100E1
3.175754125E0,-2.399678802E1,-6.748519897E0,4.980599594E1
3.195607125E0,-2.329818726E1,-7.268295288E0,5.012513351E1
3.215461125E0,-2.282031250E1,-7.790870667E0,5.034315491E1
3.235315125E0,-2.260012817E1,-8.134361267E0,5.060596085E1
3.255169125E0,-2.183547974E1,-8.693061829E0,5.051235962E1
3.275023125E0,-2.117061615E1,-9.084251404E0,5.096331406E1
3.294876125E0,-1.998017883E1,-8.855499268E0,5.146168137E1
3.314730125E0,-1.828708649E1,-8.038734436E0,5.213685608E1
3.334584125E0,-1.724699402E1,-7.650894165E0,5.284051514E1
3.354438125E0,-1.639697266E1,-7.241119385E0,5.346711731E1
3.374291125E0,-1.555224609E1,-7.186103821E0,5.361923218E1
3.394145125E0,-1.555126190E1,-7.470741272E0,5.413896942E1
3.413999125E0,-1.555339813E1,-7.619049072E0,5.435498428E1
3.433853125E0,-1.510013580E1,-7.976119995E0,5.460013962E1
3.453707125E0,-1.458413696E1,-8.274169922E0,5.447832489E1
3.473560125E0,-1.422299957E1,-8.548080444E0,5.486047363E1
3.493414125E0,-1.404710388E1,-8.867752075E0,5.509143829E1
3.513268125E0,-1.385630798E1,-9.280487061E0,5.505455017E1
3.533122125E0,-1.379444122E1,-9.460304260E0,5.531428528E1
3.552976125E0,-1.431310272E1,-9.246513367E0,5.534037781E1
3.572828875E0,-1.424562836E1,-9.292510986E0,5.528952026E1
3.592682875E0,-1.349478149E1,-9.261688232E0,5.527662659E1
3.612536875E0,-1.216658020E1,-9.104759216E0,5.575452423E1
3.632390875E0,-1.029203033E1,-8.993766785E0,5.621743011E1
3.652244875E0,-9.358734131E0,-8.420326233E0,5.623155212E1
3.672097875E0,-9.556800842E0,-7.763450623E0,5.602989197E1
3.691951875E0,-1.026303101E1,-7.792404175E0,5.563969421E1
3.711805875E0,-1.024915314E1,-8.887191772E0,5.529179382E1
3.731659875E0,-1.030159760E1,-9.797485352E0,5.517143631E1
3.751513875E0,-1.002547455E1,-1.030753326E1,5.503311157E1
3.771366875E0,-1.006784821E1,-1.046658325E1,5.485690308E1
3.791220875E0,-9.771545410E0,-1.018091583E1,5.532110977E1
3.811074875E0,-9.702278137E0,-1.012898254E1,5.510156250E1
3.830928875E0,-9.640739441E0,-9.865936279E0,5.507659531E1
3.850782875E0,-9.684066772E0,-1.048069000E1,5.502939987E1
3.870635875E0,-9.744972229E0,-1.052832031E1,5.513123703E1
3.890489875E0,-1.024363708E1,-1.044054413E1,5.521824265E1
3.910343875E0,-9.915367126E0,-9.953804016E0,5.519049072E1
3.930197875E0,-9.936370850E0,-1.021354675E1,5.529267883E1
3.950050875E0,-1.024614716E1,-1.033504486E1,5.541851044E1
3.969904875E0,-1.035035706E1,-1.056227875E1,5.569906998E1
3.989758875E0,-1.051791382E1,-1.007960510E1,5.580504227E1
4.009612875E0,-1.064519501E1,-1.007477570E1,5.556748581E1
4.029466875E0,-1.117450714E1,-1.049114990E1,5.580084610E1
4.049319875E0,-1.122998810E1,-1.046678162E1,5.527886581E1
4.069173875E0,-1.173960876E1,-1.064553070E1,5.564317703E1
4.089027875E0,-1.249302673E1,-1.065911865E1,5.569444275E1
4.108881875E0,-1.335614777E1,-1.031871796E1,5.575653458E1
4.128734875E0,-1.410071564E1,-9.799072266E0,5.590641022E1
4.148588875E0,-1.544951630E1,-8.522163391E0,5.626069260E1
4.168442875E0,-1.690730286E1,-7.262519836E0,5.643935394E1
4.188296875E0,-1.779161835E1,-6.140602112E0,5.628013611E1
4.208150875E0,-1.880571747E1,-4.873390198E0,5.687192535E1
4.228003875E0,-1.992482758E1,-4.436084747E0,5.658375549E1
4.247857875E0,-2.067623138E1,-4.049915314E0,5.700900650E1
4.267711875E0,-2.089248657E1,-3.638008118E0,5.702910995E1
4.287565875E0,-2.140872192E1,-2.964809418E0,5.737054062E1
4.307419875E0,-2.206078339E1,-2.744377136E0,5.737520981E1
4.327272875E0,-2.260154724E1,-2.477333069E0,5.773896027E1
4.347126875E0,-2.287600708E1,-2.724128723E0,5.781262589E1
4.366980875E0,-2.359580231E1,-2.567634583E0,5.770178986E1
4.386834875E0,-2.419992065E1,-2.461257935E0,5.725857925E1
4.406687875E0,-2.500574493E1,-2.240291595E0,5.743385696E1
4.426541875E0,-2.541029358E1,-2.075866699E0,5.762036896E1
4.446395875E0,-2.571379852E1,-1.835002899E0,5.741477966E1
4.466249875E0,-2.613939667E1,-1.503643036E0,5.738827133E1
4.486103875E0,-2.668527222E1,-1.170341492E0,5.739172363E1
4.505956875E0,-2.790518188E1,-1.172286987E0,5.764249802E1
4.525810875E0,-2.819682312E1,-6.634101868E-1,5.739347839E1
4.545664875E0,-2.841978455E1,-4.889564514E-1,5.709673691E1
4.565519000E0,-2.878963470E1,-6.339340210E-1,5.800152206E1
4.585373000E0,-2.865133667E1,-5.843811035E-1,5.789440155E1
4.605226000E0,-2.937084961E1,-2.727966309E-1,5.785148239E1
4.625080000E0,-2.973269653E1,-2.493286133E-2,5.800060272E1
4.644934000E0,-3.015180969E1,2.863616943E-1,5.763980865E1
4.664788000E0,-3.038556671E1,4.318695068E-1,5.816459274E1
4.684641000E0,-3.104652405E1,9.354972839E-1,5.794606400E1
4.704495000E0,-3.204589081E1,1.007209778E0,5.740821075E1
4.724349000E0,-3.248806763E1,1.412670135E0,5.718201065E1
4.744203000E0,-3.329265594E1,1.626285553E0,5.765449905E1
4.764057000E0,-3.360512543E1,1.581371307E0,5.720407867E1
4.783910000E0,-3.431009674E1,1.980930328E0,5.721590042E1
4.803764000E0,-3.421916962E1,2.039634705E0,5.725328827E1
4.823618000E0,-3.418895721E1,1.551116943E0,5.681314468E1
4.843472000E0,-3.385183716E1,1.045528412E0,5.689154053E1
4.863325000E0,-3.336016083E1,2.121429443E-1,5.664761353E1
4.883179000E0,-3.263974762E1,-5.121498108E-1,5.711137390E1
4.903033000E0,-3.206936646E1,-1.350688934E0,5.709438705E1
4.922887000E0,-3.123432922E1,-2.248538971E0,5.697075653E1
4.942741000E0,-3.030801392E1,-3.328357697E0,5.693252563E1
4.962594000E0,-2.999752045E1,-4.165145874E0,5.664921570E1
4.982448000E0,-2.953273010E1,-4.934364319E0,5.649596405E1
5.002302000E0,-2.884919739E1,-5.642269135E0,5.641956711E1
5.022156000E0,-2.846390533E1,-6.485275269E0,5.601726532E1
5.042009000E0,-2.785243225E1,-7.465110779E0,5.541191864E1
5.061863000E0,-2.724574280E1,-8.390281677E0,5.506125259E1
5.081717000E0,-2.739862823E1,-9.098503113E0,5.487635803E1
5.101571000E0,-2.732398987E1,-9.502136230E0,5.447773361E1
5.121425000E0,-2.728514862E1,-1.013124847E1,5.441761017E1
5.141278000E0,-2.704057312E1,-1.060494995E1,5.340709305E1
5.161132000E0,-2.686779022E1,-1.126535034E1,5.309092712E1
5.180986000E0,-2.687596130E1,-1.197892761E1,5.243420792E1
5.200840000E0,-2.729991913E1,-1.232849121E1,5.211687088E1
5.220693000E0,-2.751398468E1,-1.286495972E1,5.102027893E1
5.240547000E0,-2.796318054E1,-1.409038544E1,5.001246643E1
5.260401000E0,-2.796538544E1,-1.552241516E1,4.857513809E1
5.280255000E0,-2.785553741E1,-1.698641205E1,4.661031342E1
5.300109000E0,-2.788272858E1,-1.875445557E1,4.546937943E1
5.319962000E0,-2.763478851E1,-2.018970490E1,4.378022766E1
5.339816000E0,-2.746997833E1,-2.125428772E1,4.190263367E1
5.359670000E0,-2.725080109E1,-2.205673981E1,4.042184448E1
5.379524000E0,-2.736536407E1,-2.280751801E1,3.923159790E1
5.399377000E0,-2.700928497E1,-2.318631744E1,3.828801727E1
5.419231000E0,-2.713562775E1,-2.348285675E1,3.742588806E1
5.439085000E0,-2.722419739E1,-2.325204468E1,3.679690552E1
5.458939000E0,-2.789668274E1,-2.314781189E1,3.582169342E1
5.478793000E0,-2.799494934E1,-2.267371368E1,3.530439758E1
5.498646000E0,-2.764448547E1,-2.265977478E1,3.478175354E1
5.518500000E0,-2.784735107E1,-2.294359589E1,3.474980545E1
5.538354000E0,-2.785644531E1,-2.329976654E1,3.407533264E1
5.558208000E0,-2.735342407E1,-2.361103058E1,3.392720032E1
5.578060875E0,-2.675894928E1,-2.357704926E1,3.376018524E1
5.597914875E0,-2.693373871E1,-2.389551544E1,3.416998291E1
5.617768875E0,-2.697154236E1,-2.404335022E1,3.425840759E1
5.637622875E0,-2.666059875E1,-2.402777863E1,3.444850159E1
5.657475875E0,-2.677828979E1,-2.404640198E1,3.433019257E1
5.677329875E0,-2.665505219E1,-2.426207733E1,3.449872208E1
5.697183875E0,-2.673802948E1,-2.413178253E1,3.436314011E1
5.717037875E0,-2.667739868E1,-2.413208771E1,3.464222717E1
5.736891875E0,-2.685961914E1,-2.384765625E1,3.466661072E1
5.756744875E0,-2.666633606E1,-2.402954102E1,3.465255737E1
5.776598875E0,-2.687710571E1,-2.393344879E1,3.464687347E1
5.796452875E0,-2.673098755E1,-2.438469696E1,3.435494995E1
5.816306875E0,-2.675819397E1,-2.429001617E1,3.405886078E1
5.836159875E0,-2.660698700E1,-2.413852692E1,3.394324493E1
5.856013875E0,-2.676810455E1,-2.398966980E1,3.356517029E1
5.875867875E0,-2.664102936E1,-2.393717194E1,3.347009659E1
5.895721875E0,-2.673335266E1,-2.397837830E1,3.315806961E1
5.915575875E0,-2.692147064E1,-2.372449493E1,3.265480042E1
5.935428875E0,-2.730379486E1,-2.372477722E1,3.289146423E1
5.955282875E0,-2.676876831E1,-2.389089203E1,3.288582611E1
5.975136875E0,-2.647162628E1,-2.384223938E1,3.296559906E1
5.994990875E0,-2.653771973E1,-2.365325165E1,3.294070435E1
6.014843875E0,-2.651940155E1,-2.369903564E1,3.286222839E1
6.034697875E0,-2.654530334E1,-2.371794128E1,3.260694885E1
6.054551875E0,-2.672066498E1,-2.365206146E1,3.250232315E1
6.074405875E0,-2.653799438E1,-2.387987518E1,3.277220154E1
6.094258875E0,-2.657250214E1,-2.409216309E1,3.269333267E1
6.114112875E0,-2.649171448E1,-2.397998047E1,3.279550171E1
6.133966875E0,-2.661287689E1,-2.392307281E1,3.273764801E1
6.153820875E0,-2.632930756E1,-2.383119965E1,3.248731995E1
6.173674875E0,-2.663577271E1,-2.387324524E1,3.294277954E1
6.193527875E0,-2.672274017E1,-2.396562195E1,3.296613693E1
6.213381875E0,-2.712187195E1,-2.413222504E1,3.280276489E1
6.233235875E0,-2.735699463E1,-2.415676117E1,3.318773651E1
6.253089875E0,-2.751488495E1,-2.403570557E1,3.313975525E1
6.272942875E0,-2.785350800E1,-2.403721619E1,3.371590805E1
6.292796875E0,-2.814913177E1,-2.400080872E1,3.404371643E1
6.312650875E0,-2.840255737E1,-2.380934143E1,3.443534088E1
6.332504875E0,-2.896062469E1,-2.400582123E1,3.492146301E1
6.352357875E0,-2.927101898E1,-2.377565765E1,3.528882599E1
6.372211875E0,-2.970182800E1,-2.400911713E1,3.583180237E1
6.392065875E0,-2.978689575E1,-2.395983887E1,3.607496262E1
6.411919875E0,-2.959812927E1,-2.375516510E1,3.657657623E1
6.431773875E0,-2.989967346E1,-2.372810364E1,3.681725311E1
6.451626875E0,-3.042657471E1,-2.372650146E1,3.729071045E1
6.471480875E0,-3.031494904E1,-2.372896576E1,3.748560333E1
6.491334875E0,-3.028082275E1,-2.387290955E1,3.775823975E1
6.511188875E0,-3.034989929E1,-2.396395874E1,3.845363617E1
6.531041875E0,-3.051145172E1,-2.401166534E1,3.816116333E1
6.550895875E0,-3.059637451E1,-2.383367157E1,3.884477997E1
6.570749875E0,-3.065171814E1,-2.382603455E1,3.859481812E1
6.590603875E0,-3.027133942E1,-2.407113647E1,3.889624023E1
6.610456875E0,-3.048705292E1,-2.434963989E1,3.901918793E1
6.630310875E0,-2.999176025E1,-2.433657074E1,3.929744720E1
6.650164875E0,-2.980043793E1,-2.479151154E1,3.903636932E1
6.670018875E0,-2.959869385E1,-2.512754059E1,3.889530182E1
6.689872875E0,-3.000588226E1,-2.530735016E1,3.884521103E1
6.709725875E0,-2.944796753E1,-2.538269806E1,3.896935272E1
6.729579875E0,-2.915672302E1,-2.512455750E1,3.840579987E1
6.749433875E0,-2.934314728E1,-2.544747162E1,3.809246063E1
6.769287875E0,-2.975986481E1,-2.538389587E1,3.790687561E1
